# Efficiency of the Xenon1T experiment from arXiv:2006.09721
# Columns: Energy [keV] | Efficiency [dimensionless]
0	0
0.2102102102	5.10E-05
0.4204204204	0.0040888881
0.6306306306	0.0253556086
0.8408408408	0.067289033
1.0510510511	0.1466246906
1.2612612613	0.2681186407
1.4714714715	0.4227177496
1.6816816817	0.5717632844
1.8918918919	0.6871644057
2.1021021021	0.7599736941
2.3123123123	0.8046746518
2.5225225225	0.8290912387
2.7327327327	0.8437405522
2.9429429429	0.8530410154
3.1531531532	0.8593502343
3.3633633634	0.8643117381
3.5735735736	0.8682567098
3.7837837838	0.8715811071
3.993993994	0.8744119597
4.2042042042	0.8767677749
4.4144144144	0.8787116298
4.6246246246	0.8802087994
4.8348348348	0.8813664558
5.045045045	0.882244
5.2552552553	0.8829013491
5.4654654655	0.8834114245
5.6756756757	0.8837915867
5.8858858859	0.8840859188
6.0960960961	0.8843237506
6.3063063063	0.884532558
6.5165165165	0.8847294144
6.7267267267	0.884918056
6.9369369369	0.8850997455
7.1471471471	0.8852748505
7.3573573574	0.8854436151
7.5675675676	0.8856062557
7.7777777778	0.8857629802
7.987987988	0.8859139895
8.1981981982	0.8860594774
8.4084084084	0.8861996312
8.6186186186	0.8863346317
8.8288288288	0.8864646536
9.039039039	0.8865898657
9.2492492492	0.8867104312
9.4594594595	0.8868265075
9.6696696697	0.8869382468
9.8798798799	0.8870457963
10.0900900901	0.887149298
10.3003003003	0.887248889
10.5105105105	0.8873447021
10.7207207207	0.8874368654
10.9309309309	0.8875255025
11.1411411411	0.887610733
11.3513513514	0.8876926724
11.5615615616	0.8877714324
11.7717717718	0.8878471207
11.981981982	0.8879198414
12.1921921922	0.8879896953
12.4024024024	0.8880567795
12.6126126126	0.8881211878
12.8228228228	0.8881830111
13.033033033	0.888242337
13.2432432432	0.8882992501
13.4534534535	0.8883538323
13.6636636637	0.8884061626
13.8738738739	0.8884563174
14.0840840841	0.8885043703
14.2942942943	0.8885503928
14.5045045045	0.8885944536
14.7147147147	0.8886366192
14.9249249249	0.8886769539
15.1351351351	0.8887155198
15.3453453453	0.8887523768
15.5555555556	0.888787583
15.7657657658	0.8888211942
15.975975976	0.8888532646
16.1861861862	0.8888838463
16.3963963964	0.8889129899
16.6066066066	0.8889407442
16.8168168168	0.8889671561
17.027027027	0.8889922714
17.2372372372	0.8890161338
17.4474474474	0.8890387859
17.6576576577	0.8890602688
17.8678678679	0.889080622
18.0780780781	0.8890998839
18.2882882883	0.8891180915
18.4984984985	0.8891352805
18.7087087087	0.8891514854
18.9189189189	0.8891667397
19.1291291291	0.8891810756
19.3393393393	0.8891945241
19.5495495495	0.8892071155
19.7597597598	0.8892188787
19.96996997	0.8892298418
20.1801801802	0.889240032
20.3903903904	0.8892494754
20.6006006006	0.8892581974
20.8108108108	0.8892662225
21.021021021	0.8892735742
21.2312312312	0.8892802755
21.4414414414	0.8892863483
21.6516516517	0.889291814
21.8618618619	0.8892966931
22.0720720721	0.8893010056
22.2822822823	0.8893047707
22.4924924925	0.8893080068
22.7027027027	0.889310732
22.9129129129	0.8893129636
23.1231231231	0.8893147183
23.3333333333	0.8893160122
23.5435435435	0.8893168611
23.7537537538	0.88931728
23.963963964	0.8893172834
24.1741741742	0.8893168855
24.3843843844	0.8893160999
24.5945945946	0.8893149397
24.8048048048	0.8893134176
25.015015015	0.8893115458
25.2252252252	0.8893093364
25.4354354354	0.8893068006
25.6456456456	0.8893039495
25.8558558559	0.8893007939
26.0660660661	0.8892973441
26.2762762763	0.88929361
26.4864864865	0.8892896013
26.6966966967	0.8892853273
26.9069069069	0.889280797
27.1171171171	0.8892760191
27.3273273273	0.8892710019
27.5375375375	0.8892657537
27.7477477477	0.8892602821
27.957957958	0.8892545949
28.1681681682	0.8892486993
28.3783783784	0.8892426023
28.5885885886	0.8892363108
28.7987987988	0.8892298315
29.009009009	0.8892231706
29.2192192192	0.8892163343
29.4294294294	0.8892093286
29.6396396396	0.8892021592
29.8498498498	0.8891948317
30.0600600601	0.8891873514
30.2702702703	0.8891797235
30.4804804805	0.889171953
30.6906906907	0.8891640447
30.9009009009	0.8891560034
31.1111111111	0.8891478335
31.3213213213	0.8891395393
31.5315315315	0.8891311252
31.7417417417	0.8891225952
31.951951952	0.8891139531
32.1621621622	0.8891052028
32.3723723724	0.889096348
32.5825825826	0.8890873922
32.7927927928	0.8890783389
33.003003003	0.8890691912
33.2132132132	0.8890599526
33.4234234234	0.8890506259
33.6336336336	0.8890412143
33.8438438438	0.8890317205
34.0540540541	0.8890221474
34.2642642643	0.8890124977
34.4744744745	0.8890027739
34.6846846847	0.8889929786
34.8948948949	0.8889831142
35.1051051051	0.8889731831
35.3153153153	0.8889631874
35.5255255255	0.8889531295
35.7357357357	0.8889430113
35.9459459459	0.888932835
36.1561561562	0.8889226025
36.3663663664	0.8889123157
36.5765765766	0.8889019765
36.7867867868	0.8888915866
36.996996997	0.8888811478
37.2072072072	0.8888706617
37.4174174174	0.8888601299
37.6276276276	0.888849554
37.8378378378	0.8888389354
38.048048048	0.8888282757
38.2582582583	0.8888175762
38.4684684685	0.8888068382
38.6786786787	0.8887960631
38.8888888889	0.8887852521
39.0990990991	0.8887744064
39.3093093093	0.8887635273
39.5195195195	0.8887526158
39.7297297297	0.888741673
39.9399399399	0.8887307
40.1501501502	0.8887196979
40.3603603604	0.8887086676
40.5705705706	0.8886976101
40.7807807808	0.8886865262
40.990990991	0.888675417
41.2012012012	0.8886642831
41.4114114114	0.8886531256
41.6216216216	0.8886419452
41.8318318318	0.8886307426
42.042042042	0.8886195186
42.2522522523	0.888608274
42.4624624625	0.8885970094
42.6726726727	0.8885857255
42.8828828829	0.888574423
43.0930930931	0.8885631025
43.3033033033	0.8885517646
43.5135135135	0.8885404099
43.7237237237	0.888529039
43.9339339339	0.8885176524
44.1441441441	0.8885062506
44.3543543544	0.8884948342
44.5645645646	0.8884834037
44.7747747748	0.8884719595
44.984984985	0.8884605022
45.1951951952	0.888449032
45.4054054054	0.8884375496
45.6156156156	0.8884260553
45.8258258258	0.8884145494
46.036036036	0.8884030325
46.2462462462	0.8883915048
46.4564564565	0.8883799668
46.6666666667	0.8883684187
46.8768768769	0.888356861
47.0870870871	0.8883452939
47.2972972973	0.8883337179
47.5075075075	0.888322133
47.7177177177	0.8883105398
47.9279279279	0.8882989384
48.1381381381	0.8882873292
48.3483483483	0.8882757123
48.5585585586	0.8882640881
48.7687687688	0.8882524568
48.978978979	0.8882408187
49.1891891892	0.888229174
49.3993993994	0.8882175228
49.6096096096	0.8882058655
49.8198198198	0.8881942022
50.03003003	0.8881825331
50.2402402402	0.8881708585
50.4504504505	0.8881591785
50.6606606607	0.8881474933
50.8708708709	0.888135803
51.0810810811	0.8881241079
51.2912912913	0.8881124082
51.5015015015	0.8881007039
51.7117117117	0.8880889952
51.9219219219	0.8880772823
52.1321321321	0.8880655653
52.3423423423	0.8880538443
52.5525525526	0.8880421196
52.7627627628	0.8880303912
52.972972973	0.8880186592
53.1831831832	0.8880069238
53.3933933934	0.887995185
53.6036036036	0.8879834431
53.8138138138	0.887971698
54.024024024	0.88795995
54.2342342342	0.887948199
54.4444444444	0.8879364453
54.6546546547	0.8879246888
54.8648648649	0.8879129298
55.0750750751	0.8879011682
55.2852852853	0.8878894043
55.4954954955	0.8878776379
55.7057057057	0.8878658693
55.9159159159	0.8878540985
56.1261261261	0.8878423255
56.3363363363	0.8878305506
56.5465465465	0.8878187736
56.7567567568	0.8878069947
56.966966967	0.887795214
57.1771771772	0.8877834315
57.3873873874	0.8877716473
57.5975975976	0.8877598614
57.8078078078	0.8877480739
58.018018018	0.8877362848
58.2282282282	0.8877244942
58.4384384384	0.8877127022
58.6486486486	0.8877009088
58.8588588589	0.887689114
59.0690690691	0.887677318
59.2792792793	0.8876655206
59.4894894895	0.8876537221
59.6996996997	0.8876419223
59.9099099099	0.8876301214
60.1201201201	0.8876183195
60.3303303303	0.8876065164
60.5405405405	0.8875947123
60.7507507508	0.8875829073
60.960960961	0.8875711012
61.1711711712	0.8875592943
61.3813813814	0.8875474864
61.5915915916	0.8875356777
61.8018018018	0.8875238682
62.012012012	0.8875120578
62.2222222222	0.8875002467
62.4324324324	0.8874884348
62.6426426426	0.8874766222
62.8528528529	0.8874648089
63.0630630631	0.8874529949
63.2732732733	0.8874411802
63.4834834835	0.8874293649
63.6936936937	0.887417549
63.9039039039	0.8874057325
64.1141141141	0.8873939155
64.3243243243	0.8873820978
64.5345345345	0.8873702797
64.7447447447	0.887358461
64.954954955	0.8873466419
65.1651651652	0.8873348222
65.3753753754	0.8873230021
65.5855855856	0.8873111815
65.7957957958	0.8872993605
66.006006006	0.8872875391
66.2162162162	0.8872757173
66.4264264264	0.8872638951
66.6366366366	0.8872520725
66.8468468468	0.8872402496
67.0570570571	0.8872284263
67.2672672673	0.8872166026
67.4774774775	0.8872047786
67.6876876877	0.8871929544
67.8978978979	0.8871811298
68.1081081081	0.8871693049
68.3183183183	0.8871574797
68.5285285285	0.8871456542
68.7387387387	0.8871338285
68.9489489489	0.8871220025
69.1591591592	0.8871101763
69.3693693694	0.8870983498
69.5795795796	0.8870865231
69.7897897898	0.8870746961
70	0.887062869
70.2102102102	0.8870510416
70.4204204204	0.887039214
70.6306306306	0.8870273863
70.8408408408	0.8870155583
71.0510510511	0.8870037302
71.2612612613	0.8869919019
71.4714714715	0.8869800734
71.6816816817	0.8869682447
71.8918918919	0.8869564159
72.1021021021	0.886944587
72.3123123123	0.8869327579
72.5225225225	0.8869209286
72.7327327327	0.8869090992
72.9429429429	0.8868972697
73.1531531532	0.88688544
73.3633633634	0.8868736102
73.5735735736	0.8868617803
73.7837837838	0.8868499503
73.993993994	0.8868381202
74.2042042042	0.8868262899
74.4144144144	0.8868144596
74.6246246246	0.8868026291
74.8348348348	0.8867907986
75.045045045	0.8867789679
75.2552552553	0.8867671372
75.4654654655	0.8867553064
75.6756756757	0.8867434755
75.8858858859	0.8867316445
76.0960960961	0.8867198134
76.3063063063	0.8867079822
76.5165165165	0.886696151
76.7267267267	0.8866843197
76.9369369369	0.8866724883
77.1471471471	0.8866606569
77.3573573574	0.8866488254
77.5675675676	0.8866369938
77.7777777778	0.8866251622
77.987987988	0.8866133305
78.1981981982	0.8866014988
78.4084084084	0.886589667
78.6186186186	0.8865778351
78.8288288288	0.8865660033
79.039039039	0.8865541713
79.2492492492	0.8865423393
79.4594594595	0.8865305073
79.6696696697	0.8865186752
79.8798798799	0.886506843
80.0900900901	0.8864950109
80.3003003003	0.8864831787
80.5105105105	0.8864713464
80.7207207207	0.8864595141
80.9309309309	0.8864476818
81.1411411411	0.8864358494
81.3513513514	0.8864240171
81.5615615616	0.8864121846
81.7717717718	0.8864003522
81.981981982	0.8863885197
82.1921921922	0.8863766872
82.4024024024	0.8863648546
82.6126126126	0.8863530221
82.8228228228	0.8863411895
83.033033033	0.8863293568
83.2432432432	0.8863175242
83.4534534535	0.8863056915
83.6636636637	0.8862938588
83.8738738739	0.8862820261
84.0840840841	0.8862701934
84.2942942943	0.8862583606
84.5045045045	0.8862465278
84.7147147147	0.886234695
84.9249249249	0.8862228622
85.1351351351	0.8862110294
85.3453453453	0.8861991965
85.5555555556	0.8861873636
85.7657657658	0.8861755307
85.975975976	0.8861636978
86.1861861862	0.8861518649
86.3963963964	0.886140032
86.6066066066	0.886128199
86.8168168168	0.8861163661
87.027027027	0.8861045331
87.2372372372	0.8860927001
87.4474474474	0.8860808671
87.6576576577	0.8860690341
87.8678678679	0.8860572011
88.0780780781	0.886045368
88.2882882883	0.886033535
88.4984984985	0.8860217019
88.7087087087	0.8860098689
88.9189189189	0.8859980358
89.1291291291	0.8859862027
89.3393393393	0.8859743696
89.5495495495	0.8859625365
89.7597597598	0.8859507034
89.96996997	0.8859388703
90.1801801802	0.8859270371
90.3903903904	0.885915204
90.6006006006	0.8859033708
90.8108108108	0.8858915377
91.021021021	0.8858797045
91.2312312312	0.8858678714
91.4414414414	0.8858560382
91.6516516517	0.885844205
91.8618618619	0.8858323718
92.0720720721	0.8858205387
92.2822822823	0.8858087055
92.4924924925	0.8857968723
92.7027027027	0.8857850391
92.9129129129	0.8857732058
93.1231231231	0.8857613726
93.3333333333	0.8857495394
93.5435435435	0.8857377062
93.7537537538	0.885725873
93.963963964	0.8857140397
94.1741741742	0.8857022065
94.3843843844	0.8856903732
94.5945945946	0.88567854
94.8048048048	0.8856667067
95.015015015	0.8856548735
95.2252252252	0.8856430402
95.4354354354	0.885631207
95.6456456456	0.8856193737
95.8558558559	0.8856075404
96.0660660661	0.8855957072
96.2762762763	0.8855838739
96.4864864865	0.8855720406
96.6966966967	0.8855602074
96.9069069069	0.8855483741
97.1171171171	0.8855365408
97.3273273273	0.8855247075
97.5375375375	0.8855128742
97.7477477477	0.8855010409
97.957957958	0.8854892076
98.1681681682	0.8854773743
98.3783783784	0.885465541
98.5885885886	0.8854537077
98.7987987988	0.8854418744
99.009009009	0.8854300411
99.2192192192	0.8854182078
99.4294294294	0.8854063745
99.6396396396	0.8853945412
99.8498498498	0.8853827079
100.0600600601	0.8853708746
100.2702702703	0.8853590413
100.4804804805	0.885347208
100.6906906907	0.8853353747
100.9009009009	0.8853235414
101.1111111111	0.885311708
101.3213213213	0.8852998747
101.5315315315	0.8852880414
101.7417417417	0.8852762081
101.951951952	0.8852643748
102.1621621622	0.8852525414
102.3723723724	0.8852407081
102.5825825826	0.8852288748
102.7927927928	0.8852170415
103.003003003	0.8852052081
103.2132132132	0.8851933748
103.4234234234	0.8851815415
103.6336336336	0.8851697081
103.8438438438	0.8851578748
104.0540540541	0.8851460415
104.2642642643	0.8851342081
104.4744744745	0.8851223748
104.6846846847	0.8851105415
104.8948948949	0.8850987081
105.1051051051	0.8850868748
105.3153153153	0.8850750415
105.5255255255	0.8850632081
105.7357357357	0.8850513748
105.9459459459	0.8850395415
106.1561561562	0.8850277081
106.3663663664	0.8850158748
106.5765765766	0.8850040414
106.7867867868	0.8849922081
106.996996997	0.8849803748
107.2072072072	0.8849685414
107.4174174174	0.8849567081
107.6276276276	0.8849448747
107.8378378378	0.8849330414
108.048048048	0.884921208
108.2582582583	0.8849093747
108.4684684685	0.8848975414
108.6786786787	0.884885708
108.8888888889	0.8848738747
109.0990990991	0.8848620413
109.3093093093	0.884850208
109.5195195195	0.8848383746
109.7297297297	0.8848265413
109.9399399399	0.8848147079
110.1501501502	0.8848028746
110.3603603604	0.8847910412
110.5705705706	0.8847792079
110.7807807808	0.8847673746
110.990990991	0.8847555412
111.2012012012	0.8847437079
111.4114114114	0.8847318745
111.6216216216	0.8847200412
111.8318318318	0.8847082078
112.042042042	0.8846963745
112.2522522523	0.8846845411
112.4624624625	0.8846727078
112.6726726727	0.8846608744
112.8828828829	0.8846490411
113.0930930931	0.8846372077
113.3033033033	0.8846253744
113.5135135135	0.884613541
113.7237237237	0.8846017077
113.9339339339	0.8845898743
114.1441441441	0.884578041
114.3543543544	0.8845662076
114.5645645646	0.8845543743
114.7747747748	0.8845425409
114.984984985	0.8845307076
115.1951951952	0.8845188742
115.4054054054	0.8845070409
115.6156156156	0.8844952075
115.8258258258	0.8844833742
116.036036036	0.8844715408
116.2462462462	0.8844597074
116.4564564565	0.8844478741
116.6666666667	0.8844360407
116.8768768769	0.8844242074
117.0870870871	0.884412374
117.2972972973	0.8844005407
117.5075075075	0.8843887073
117.7177177177	0.884376874
117.9279279279	0.8843650406
118.1381381381	0.8843532073
118.3483483483	0.8843413739
118.5585585586	0.8843295406
118.7687687688	0.8843177072
118.978978979	0.8843058739
119.1891891892	0.8842940405
119.3993993994	0.8842822072
119.6096096096	0.8842703738
119.8198198198	0.8842585405
120.03003003	0.8842467071
120.2402402402	0.8842348737
120.4504504505	0.8842230404
120.6606606607	0.884211207
120.8708708709	0.8841993737
121.0810810811	0.8841875403
121.2912912913	0.884175707
121.5015015015	0.8841638736
121.7117117117	0.8841520403
121.9219219219	0.8841402069
122.1321321321	0.8841283736
122.3423423423	0.8841165402
122.5525525526	0.8841047069
122.7627627628	0.8840928735
122.972972973	0.8840810401
123.1831831832	0.8840692068
123.3933933934	0.8840573734
123.6036036036	0.8840455401
123.8138138138	0.8840337067
124.024024024	0.8840218734
124.2342342342	0.88401004
124.4444444444	0.8839982067
124.6546546547	0.8839863733
124.8648648649	0.88397454
125.0750750751	0.8839627066
125.2852852853	0.8839508732
125.4954954955	0.8839390399
125.7057057057	0.8839272065
125.9159159159	0.8839153732
126.1261261261	0.8839035398
126.3363363363	0.8838917065
126.5465465465	0.8838798731
126.7567567568	0.8838680398
126.966966967	0.8838562064
127.1771771772	0.8838443731
127.3873873874	0.8838325397
127.5975975976	0.8838207063
127.8078078078	0.883808873
128.018018018	0.8837970396
128.2282282282	0.8837852063
128.4384384384	0.8837733729
128.6486486486	0.8837615396
128.8588588589	0.8837497062
129.0690690691	0.8837378729
129.2792792793	0.8837260395
129.4894894895	0.8837142062
129.6996996997	0.8837023728
129.9099099099	0.8836905394
130.1201201201	0.8836787061
130.3303303303	0.8836668727
130.5405405405	0.8836550394
130.7507507508	0.883643206
130.960960961	0.8836313727
131.1711711712	0.8836195393
131.3813813814	0.883607706
131.5915915916	0.8835958726
131.8018018018	0.8835840393
132.012012012	0.8835722059
132.2222222222	0.8835603725
132.4324324324	0.8835485392
132.6426426426	0.8835367058
132.8528528529	0.8835248725
133.0630630631	0.8835130391
133.2732732733	0.8835012058
133.4834834835	0.8834893724
133.6936936937	0.8834775391
133.9039039039	0.8834657057
134.1141141141	0.8834538724
134.3243243243	0.883442039
134.5345345345	0.8834302056
134.7447447447	0.8834183723
134.954954955	0.8834065389
135.1651651652	0.8833947056
135.3753753754	0.8833828722
135.5855855856	0.8833710389
135.7957957958	0.8833592055
136.006006006	0.8833473722
136.2162162162	0.8833355388
136.4264264264	0.8833237054
136.6366366366	0.8833118721
136.8468468468	0.8833000387
137.0570570571	0.8832882054
137.2672672673	0.883276372
137.4774774775	0.8832645387
137.6876876877	0.8832527053
137.8978978979	0.883240872
138.1081081081	0.8832290386
138.3183183183	0.8832172053
138.5285285285	0.8832053719
138.7387387387	0.8831935385
138.9489489489	0.8831817052
139.1591591592	0.8831698718
139.3693693694	0.8831580385
139.5795795796	0.8831462051
139.7897897898	0.8831343718
140	0.8831225384
140.2102102102	0.8831107051
140.4204204204	0.8830988717
140.6306306306	0.8830870383
140.8408408408	0.883075205
141.0510510511	0.8830633716
141.2612612613	0.8830515383
141.4714714715	0.8830397049
141.6816816817	0.8830278716
141.8918918919	0.8830160382
142.1021021021	0.8830042049
142.3123123123	0.8829923715
142.5225225225	0.8829805381
142.7327327327	0.8829687048
142.9429429429	0.8829568714
143.1531531532	0.8829450381
143.3633633634	0.8829332047
143.5735735736	0.8829213714
143.7837837838	0.882909538
143.993993994	0.8828977047
144.2042042042	0.8828858713
144.4144144144	0.882874038
144.6246246246	0.8828622046
144.8348348348	0.8828503712
145.045045045	0.8828385379
145.2552552553	0.8828267045
145.4654654655	0.8828148712
145.6756756757	0.8828030378
145.8858858859	0.8827912045
146.0960960961	0.8827793711
146.3063063063	0.8827675378
146.5165165165	0.8827557044
146.7267267267	0.882743871
146.9369369369	0.8827320377
147.1471471471	0.8827202043
147.3573573574	0.882708371
147.5675675676	0.8826965376
147.7777777778	0.8826847043
147.987987988	0.8826728709
148.1981981982	0.8826610376
148.4084084084	0.8826492042
148.6186186186	0.8826373709
148.8288288288	0.8826255375
149.039039039	0.8826137041
149.2492492493	0.8826018708
149.4594594595	0.8825900374
149.6696696697	0.8825782041
149.8798798799	0.8825663707
150.0900900901	0.8825545374
150.3003003003	0.882542704
150.5105105105	0.8825308707
150.7207207207	0.8825190373
150.9309309309	0.8825072039
151.1411411411	0.8824953706
151.3513513514	0.8824835372
151.5615615616	0.8824717039
151.7717717718	0.8824598705
151.981981982	0.8824480372
152.1921921922	0.8824362038
152.4024024024	0.8824243705
152.6126126126	0.8824125371
152.8228228228	0.8824007038
153.033033033	0.8823888704
153.2432432432	0.882377037
153.4534534535	0.8823652037
153.6636636637	0.8823533703
153.8738738739	0.882341537
154.0840840841	0.8823297036
154.2942942943	0.8823178703
154.5045045045	0.8823060369
